wl,value_nat,value_unf,value_ref,int_nat,int_unf,int_ref,pc_nat,pc_unf,pc_ref,value_yfp,value_lys,value_exc,int_yfp,int_lys,int_exc,pc_yfp,pc_lys,pc_exc
360,0.003597,0.1305,0.004438,0.004125691,0.002213411,0.002319494,1.146981,0.016961,0.522644,0.011615,0.258641,0.001142,0.003027717,0.005904774,2.467116466,0.260673,0.02283,2160.347168
361,0.007194,0.261001,0.008875,0.008251381,0.004426838,0.004638466,,,,0.02323,0.517281,0.002283,0.006055434,0.011809525,4.932072585,,,
362,0.008349,0.314065,0.012569,0.009576144,0.005326856,0.006569112,,,,0.03039,0.569764,0.002325,0.007921852,0.013007712,5.022807166,,,
363,0.006038,0.36713,0.005182,0.006925471,0.006226892,0.002708341,,,,0.037549,0.464798,0.002367,0.00978801,0.010611338,5.113541747,,,
364,0.007915,0.306215,0.002591,0.009078355,0.005193713,0.001354171,,,,0.038622,0.337817,0.002395,0.010067713,0.007712362,5.174031467,,,
365,0.009792,0.2453,0.003928,0.011231238,0.004160533,0.002052946,,,,0.039694,0.210836,0.002423,0.010347154,0.004813386,5.234521188,,,
366,0.010916,0.380383,0.007856,0.012520445,0.006451676,0.004105891,,,,0.041987,0.443744,0.002777,0.010944877,0.010130676,5.999284086,,,
367,0.012073,0.244887,0.009394,0.013847502,0.004153528,0.004909718,,,,0.044642,0.303728,0.003202,0.011636964,0.00693411,6.917431632,,,
368,0.01323,0.109391,0.010933,0.015174559,0.001855381,0.005714067,,,,0.047296,0.163713,0.003627,0.01232879,0.003737568,7.835579178,,,
369,0.011182,0.160744,0.013351,0.012825542,0.002726379,0.00697782,,,,0.042442,0.229273,0.004124,0.011063483,0.005234303,8.909271721,,,
370,0.009134,0.212098,0.01577,0.010476524,0.003597394,0.008242096,,,,0.037589,0.294833,0.00462,0.009798437,0.006731037,9.980803916,,,
371,0.008527,0.343296,0.013141,0.009780307,0.005822643,0.006868065,,,,0.040229,0.483826,0.005929,0.010486614,0.011045748,12.80869836,,,
372,0.00792,0.474494,0.010512,0.00908409,0.008047893,0.005494034,,,,0.042869,0.672819,0.007237,0.011174791,0.015360458,15.63443245,,,
373,0.010133,0.369612,0.005256,0.011622358,0.006268989,0.002747017,,,,0.040916,0.828848,0.009222,0.010665696,0.0189226,19.92272158,,,
374,0.012346,0.26473,0.002127,0.014160627,0.004490086,0.001111664,,,,0.038963,0.51679,0.011207,0.010156602,0.011798316,24.21101071,,,
375,0.014196,0.281683,0.002127,0.016282542,0.004777625,0.001111664,,,,0.040216,0.43576,0.014723,0.010483225,0.009948401,31.80679135,,,
376,0.010496,0.298635,0.004253,0.012038713,0.005065148,0.002222805,,,,0.041469,0.35473,0.018239,0.010809849,0.008098486,39.402572,,,
377,0.012998,0.149318,0.005994,0.014908459,0.002532583,0.003132728,,,,0.04454,0.378167,0.024682,0.011610375,0.008633553,53.3216888,,,
378,0.0155,0,0.007734,0.017778206,0,0.004042129,,,,0.04761,0.401603,0.031126,0.012410642,0.009168596,67.24296595,,,
379,0.012859,0.082296,0.009767,0.014749029,0.001395822,0.005104664,,,,0.050703,0.340536,0.041052,0.013216903,0.007774437,88.68657194,,,
380,0.010218,0.082296,0.011799,0.011719852,0.001395822,0.006166677,,,,0.053796,0.279469,0.050979,0.014023165,0.006380277,110.1323383,,,
381,0.012028,0.164592,0.016265,0.013795887,0.002791645,0.008500805,,,,0.049457,0.308192,0.079952,0.012892105,0.007036023,172.7240768,,,
382,0.009651,0.214194,0.01896,0.011069514,0.003632944,0.00990933,,,,0.04541,0.313917,0.103581,0.011837161,0.007166725,223.77092,,,
383,0.007274,0.263795,0.01357,0.00834314,0.004474227,0.007092279,,,,0.041362,0.319642,0.127211,0.010781957,0.007297427,274.8199236,,,
384,0.008443,0.282115,0.011656,0.009683961,0.004784953,0.006091938,,,,0.040113,0.363233,0.160237,0.010456376,0.008292609,346.1675492,,,
385,0.009611,0.245475,0.009743,0.011023634,0.004163501,0.00509212,,,,0.038864,0.406824,0.193263,0.010130795,0.009287792,417.5151747,,,
386,0.008731,0.337632,0.008885,0.010014291,0.005726576,0.004643692,,,,0.039975,0.41408,0.242414,0.010420403,0.009453446,523.6983984,,,
387,0.00785,0.429789,0.008028,0.009003801,0.007289651,0.004195786,,,,0.041086,0.421337,0.291566,0.010710011,0.009619124,629.8837824,,,
388,0.009902,0.45421,0.006016,0.011357406,0.007703856,0.003144226,,,,0.043238,0.355923,0.360954,0.011270979,0.008125722,779.7859517,,,
389,0.011954,0.478632,0.004003,0.013711011,0.008118077,0.002092144,,,,0.04539,0.29051,0.430341,0.011831947,0.006632343,929.6859606,,,
390,0.012463,0.414328,0.00836,0.014294824,0.007027417,0.004369304,,,,0.048554,0.300654,0.519709,0.012656717,0.006863931,1122.751866,,,
391,0.012971,0.350025,0.012717,0.014877491,0.005936774,0.006646464,,,,0.051719,0.310798,0.609077,0.013481747,0.007095518,1315.817772,,,
392,0.014855,0.345116,0.012799,0.017038403,0.005853512,0.006689321,,,,0.055782,0.376659,0.729375,0.014540861,0.008599125,1575.703216,,,
393,0.01674,0.340207,0.01288,0.019200462,0.005770251,0.006731655,,,,0.059846,0.44252,0.849673,0.015600236,0.010102732,1835.588659,,,
394,0.017471,0.475884,0.016818,0.020038905,0.008071469,0.008789827,,,,0.064001,0.559137,0.924837,0.016683333,0.012765098,1997.968994,,,
395,0.018202,0.611561,0.020756,0.020877348,0.010372686,0.010847999,,,,0.068156,0.675754,1,0.017766429,0.015427464,2160.347168,,,
396,0.017611,0.766589,0.013502,0.020199482,0.013002116,0.007056739,,,,0.049411,0.578252,0.979237,0.012880114,0.013201493,2115.49188,,,
397,0.019489,0.657635,0.01243,0.022353513,0.011154147,0.006496465,,,,0.049693,0.497385,0.984485,0.012953623,0.0113553,2126.829382,,,
398,0.021368,0.548681,0.011359,0.02450869,0.009306178,0.005936713,,,,0.049974,0.416517,0.989732,0.013026873,0.009509083,2138.164723,,,
399,0.02304,0.676221,0.013972,0.026426442,0.011469384,0.007302382,,,,0.059063,0.537052,0.981431,0.015396129,0.012260897,2120.231681,,,
400,0.024713,0.80376,0.016586,0.028345341,0.013632573,0.008668573,,,,0.068152,0.657587,0.97313,0.017765386,0.015012711,2102.29864,,,
401,0.027676,0.888186,0.01883,0.031743846,0.015064523,0.009841387,,,,0.071727,0.730675,0.972304,0.018697292,0.01668131,2100.514193,,,
402,0.030639,0.719334,0.021073,0.035142351,0.012200624,0.011013677,,,,0.075303,0.5845,0.971477,0.019629459,0.013344135,2098.727586,,,
403,0.032547,0.784832,0.022763,0.037330791,0.013311536,0.011896945,,,,0.079886,0.576721,0.967014,0.020824123,0.01316654,2089.085956,,,
404,0.02873,0.850329,0.024453,0.032952764,0.01442243,0.012780214,,,,0.084469,0.568942,0.962552,0.022018788,0.012988946,2079.446487,,,
405,0.026561,0.805353,0.024557,0.030464962,0.013659592,0.012834569,,,,0.079411,0.610997,0.949551,0.020700304,0.013949062,2051.359814,,,
406,0.024392,0.760377,0.024661,0.027977161,0.012896754,0.012888924,,,,0.074352,0.653053,0.93655,0.019381559,0.0149092,2023.27314,,,
407,0.022119,0.763342,0.02067,0.025370073,0.012947044,0.010803051,,,,0.064511,0.630224,0.931991,0.016816276,0.014388014,2013.424117,,,
408,0.019846,0.766307,0.01668,0.022762985,0.012997333,0.008717702,,,,0.05467,0.607395,0.927431,0.014250993,0.013866828,2003.572934,,,
409,0.015614,0.91077,0.015549,0.017908961,0.01544757,0.008126592,,,,0.058916,0.69425,0.886865,0.01535781,0.015849728,1915.936291,,,
410,0.016113,0.796427,0.014596,0.018481305,0.013508198,0.007628512,,,,0.064845,0.701604,0.856063,0.016903341,0.016017619,1849.393278,,,
411,0.016612,0.682085,0.013642,0.019053648,0.011568844,0.007129909,,,,0.070774,0.708957,0.825262,0.018448871,0.016185488,1782.852425,,,
412,0.016903,0.614092,0.013856,0.01938742,0.010415614,0.007241755,,,,0.073895,0.653989,0.74046,0.019262431,0.014930569,1599.650664,,,
413,0.017194,0.546099,0.01407,0.019721191,0.009262385,0.007353601,,,,0.067653,0.59902,0.655657,0.01763531,0.013675627,1416.446743,,,
414,0.018734,0.623085,0.018389,0.021487542,0.010568145,0.009610901,,,,0.081743,0.661493,0.587346,0.021308193,0.015101885,1268.871268,,,
415,0.020273,0.700072,0.022707,0.023252746,0.011873921,0.011867677,,,,0.095833,0.723966,0.519035,0.024981076,0.016528144,1121.295792,,,
416,0.018589,0.639985,0.024143,0.02132123,0.010854786,0.012618194,,,,0.085569,0.745582,0.463996,0.022305528,0.017021637,1002.392445,,,
417,0.016905,0.579897,0.021271,0.019389714,0.009835633,0.011117161,,,,0.075304,0.70235,0.408958,0.01962972,0.016034651,883.4912571,,,
418,0.016258,0.622117,0.022241,0.018647617,0.010551726,0.011624125,,,,0.076631,0.764038,0.364252,0.019975633,0.017442988,786.9107766,,,
419,0.015611,0.664337,0.023211,0.01790552,0.01126782,0.01213109,,,,0.077958,0.825726,0.319545,0.020321546,0.018851325,690.3281358,,,
420,0.014466,0.695809,0.020495,0.016592227,0.011801616,0.010711589,,,,0.080816,0.867861,0.281639,0.021066549,0.019813267,608.438016,,,
421,0.01332,0.727281,0.017779,0.015277787,0.012335413,0.009292088,,,,0.083673,0.909996,0.243732,0.021811292,0.020775209,526.545736,,,
422,0.012576,0.651075,0.012393,0.014424433,0.011042883,0.006477127,,,,0.07875,0.806136,0.186394,0.020527999,0.018404085,402.67575,,,
423,0.012924,0.687684,0.01505,0.014823582,0.011663808,0.007865792,,,,0.081875,0.813612,0.16447,0.021342602,0.018574762,355.3122987,,,
424,0.013271,0.724292,0.017707,0.015221585,0.012284717,0.009254457,,,,0.084999,0.821088,0.142546,0.022156944,0.018745439,307.9488474,,,
425,0.014848,0.682383,0.019241,0.017030374,0.011573898,0.010056193,,,,0.078675,0.705274,0.127303,0.020508448,0.016101405,275.0186755,,,
426,0.016425,0.640474,0.020775,0.018839163,0.01086308,0.010857929,,,,0.07235,0.58946,0.11206,0.018859692,0.013457372,242.0885036,,,
427,0.0178,0.534347,0.022254,0.020416262,0.009063059,0.01163092,,,,0.079605,0.598964,0.09926,0.020750874,0.013674348,214.4360599,,,
428,0.01505,0.428219,0.023734,0.017262064,0.007263022,0.012404433,,,,0.08686,0.608467,0.08646,0.022642057,0.013891302,186.7836161,,,
429,0.01595,0.590948,0.021845,0.018294347,0.010023069,0.011417158,,,,0.093774,0.649266,0.077339,0.02444435,0.014822743,167.0790896,,,
430,0.01685,0.753676,0.019957,0.01932663,0.012783099,0.010430406,,,,0.079945,0.690064,0.068217,0.020839503,0.015754161,147.3724028,,,
431,0.014001,0.798168,0.016512,0.016058881,0.013537727,0.008629898,,,,0.065338,0.69458,0.060522,0.017031852,0.015857261,130.7485313,,,
432,0.011152,0.709185,0.013068,0.012791132,0.012028487,0.006829912,,,,0.05073,0.699096,0.052827,0.013223941,0.015960362,114.1246598,,,
433,0.009372,0.607085,0.012768,0.010749506,0.010296769,0.006673119,,,,0.051507,0.621882,0.047274,0.013426484,0.014197566,102.128252,,,
434,0.007591,0.504986,0.012469,0.008706733,0.008565068,0.006516848,,,,0.052283,0.544668,0.041722,0.013628766,0.01243477,90.13400454,,,
435,0.012081,0.369109,0.009343,0.013856677,0.006260458,0.004883063,,,,0.053211,0.531514,0.032154,0.013870671,0.012134465,69.46380284,,,
436,0.013768,0.320888,0.011314,0.015791634,0.005442581,0.005913194,,,,0.056551,0.47269,0.028891,0.014741319,0.010791513,62.41459003,,,
437,0.015455,0.272666,0.013284,0.017726591,0.004624688,0.006942803,,,,0.05989,0.413866,0.025627,0.015611706,0.009448561,55.36321687,,,
438,0.014121,0.208226,0.011322,0.016196519,0.003531721,0.005917375,,,,0.053393,0.34283,0.022949,0.013918113,0.007826809,49.57780716,,,
439,0.012788,0.143786,0.009359,0.014667593,0.002438754,0.004891425,,,,0.046895,0.271794,0.020271,0.01222426,0.006205057,43.79239744,,,
440,0.01233,0.21504,0.010756,0.014142276,0.003647293,0.005621559,,,,0.046712,0.319975,0.018411,0.012176557,0.007305029,39.77415171,,,
441,0.011872,0.286294,0.012154,0.013616958,0.004855833,0.006352215,,,,0.046529,0.368156,0.016551,0.012128854,0.008405001,35.75590598,,,
442,0.009935,0.316837,0.012594,0.011395256,0.005373872,0.006582179,,,,0.042649,0.381651,0.015003,0.011117443,0.008713092,32.41168856,,,
443,0.007998,0.347379,0.013034,0.009173554,0.005891895,0.006812142,,,,0.03877,0.354661,0.013456,0.010106292,0.008096911,29.06963149,,,
444,0.006881,0.357341,0.008627,0.007892376,0.006060861,0.00450885,,,,0.035278,0.355154,0.012266,0.009196022,0.008108166,26.49881836,,,
445,0.005764,0.337418,0.00422,0.006611198,0.005722947,0.002205558,,,,0.031785,0.355646,0.011077,0.008285491,0.008119398,23.93016558,,,
446,0.007405,0.374208,0.00345,0.008493394,0.006346942,0.001803122,,,,0.035401,0.325403,0.009111,0.009228085,0.00742895,19.68292305,,,
447,0.008648,0.2301,0.003645,0.009919092,0.003902726,0.001905037,,,,0.038067,0.266889,0.008389,0.009923039,0.006093076,18.12315239,,,
448,0.009891,0.085992,0.003841,0.011344789,0.00145851,0.002007476,,,,0.040734,0.208376,0.007666,0.010618254,0.004757224,16.56122139,,,
449,0.010363,0.075216,0.005953,0.011886164,0.001275739,0.0031113,,,,0.037227,0.268831,0.00686,0.009704074,0.006137412,14.81998157,,,
450,0.00942,0.064441,0.008065,0.010804561,0.001092984,0.004215124,,,,0.03372,0.329287,0.006054,0.008789894,0.007517622,13.07874176,,,
451,0.009411,0.174919,0.011338,0.010794238,0.002966801,0.005925738,,,,0.036126,0.229691,0.005739,0.009417073,0.005243846,12.3982324,,,
452,0.009403,0.285397,0.014612,0.010785062,0.004840619,0.007636874,,,,0.038533,0.130094,0.005425,0.010044513,0.002970046,11.71988339,,,
453,0.008685,0.306538,0.015639,0.00996153,0.005199191,0.00817363,,,,0.036803,0.224551,0.005021,0.009593548,0.005126499,10.84710313,,,
454,0.007967,0.264256,0.013584,0.009137998,0.004482046,0.007099596,,,,0.035074,0.319009,0.004618,0.009142845,0.007282975,9.976483222,,,
455,0.006452,0.215774,0.012226,0.007400321,0.003659743,0.006389846,,,,0.030591,0.354402,0.004408,0.007974248,0.008090998,9.522810317,,,
456,0.004938,0.167291,0.010867,0.005663792,0.002837423,0.005679572,,,,0.026107,0.389796,0.004197,0.00680539,0.008899043,9.066977064,,,
457,0.006969,0.219009,0.006528,0.007993311,0.003714612,0.00341182,,,,0.032495,0.39405,0.003864,0.008470569,0.008996162,8.347581457,,,
458,0.009001,0.270726,0.002188,0.010323976,0.004591784,0.001143545,,,,0.038883,0.385542,0.003532,0.010135748,0.008801924,7.630346197,,,
459,0.008208,0.277745,0.001435,0.00941442,0.004710833,0.000749994,,,,0.047701,0.305347,0.003274,0.012434363,0.006971072,7.072976628,,,
460,0.009233,0.204919,0.002324,0.010590076,0.003475631,0.001214625,,,,0.048931,0.254919,0.003086,0.012754991,0.005819801,6.66683136,,,
461,0.010258,0.132093,0.003213,0.011765731,0.002240429,0.001679255,,,,0.050162,0.204491,0.002899,0.013075879,0.00466853,6.26284644,,,
462,0.010329,0.153958,0.005886,0.011847167,0.002611282,0.003076283,,,,0.050268,0.220621,0.002694,0.01310351,0.005036777,5.819975271,,,
463,0.0104,0.175823,0.008559,0.011928602,0.002982134,0.00447331,,,,0.050056,0.236752,0.002489,0.013048248,0.005405048,5.377104101,,,
464,0.010694,0.251825,0.010131,0.012265815,0.004271204,0.005294906,,,,0.050268,0.361919,0.002388,0.01310351,0.008262611,5.158909037,,,
465,0.010988,0.327828,0.011702,0.012603027,0.005560291,0.00611598,,,,0.050481,0.487086,0.002288,0.013159034,0.011120173,4.94287432,,,
466,0.009144,0.400004,0.00916,0.010487994,0.006784468,0.004787419,,,,0.041649,0.406976,0.002113,0.01085677,0.009291262,4.564813566,,,
467,0.0073,0.47218,0.006617,0.008372961,0.008008645,0.003458335,,,,0.032817,0.326865,0.001938,0.008554506,0.007462328,4.186752812,,,
468,0.00932,0.358573,0.005901,0.010689863,0.006081757,0.003084122,,,,0.03408,0.357287,0.001917,0.008883736,0.008156862,4.141385521,,,
469,0.01134,0.244966,0.005184,0.013006765,0.004154868,0.002709386,,,,0.035342,0.387708,0.001895,0.009212705,0.008851374,4.093857883,,,
470,0.008878,0.289851,0.00907,0.010182897,0.004916163,0.004740381,,,,0.033677,0.384519,0.001829,0.008778685,0.008778569,3.95127497,,,
471,0.011205,0.25802,0.009373,0.012851922,0.004376277,0.004898742,,,,0.042928,0.310648,0.001789,0.011190171,0.007092094,3.864861084,,,
472,0.013531,0.226189,0.009676,0.0155198,0.003836392,0.005057103,,,,0.052178,0.236777,0.001749,0.013601396,0.005405619,3.778447197,,,
473,0.013651,0.229505,0.011572,0.015657438,0.003892634,0.006048036,,,,0.052984,0.295111,0.001649,0.013811498,0.006737384,3.56241248,,,
474,0.013771,0.232821,0.013468,0.015795075,0.003948877,0.007038969,,,,0.051373,0.353445,0.00155,0.013391554,0.008069149,3.34853811,,,
475,0.014051,0.277941,0.014761,0.01611623,0.004714157,0.007714748,,,,0.048349,0.382974,0.001567,0.012603279,0.008743296,3.385264012,,,
476,0.014332,0.323061,0.016053,0.016438532,0.005479438,0.008390004,,,,0.045324,0.412503,0.001585,0.011814743,0.009417443,3.424150261,,,
477,0.015144,0.356356,0.017753,0.01736988,0.006044154,0.009278499,,,,0.04964,0.439043,0.001505,0.012939808,0.010023352,3.251322488,,,
478,0.015956,0.389651,0.019454,0.018301229,0.006608871,0.010167516,,,,0.053956,0.385962,0.001425,0.014064872,0.008811512,3.078494714,,,
479,0.019034,0.544569,0.01703,0.021831636,0.009236435,0.008900627,,,,0.043807,0.514894,0.001283,0.011419302,0.01175503,2.771725417,,,
480,0.022945,0.657168,0.021099,0.026317479,0.011146226,0.011027266,,,,0.050649,0.570304,0.001335,0.013202827,0.01302004,2.884063469,,,
481,0.026857,0.43197,0.025169,0.030804469,0.007326643,0.013154427,,,,0.05749,0.459485,0.001387,0.014986091,0.010490043,2.996401522,,,
482,0.033395,0.471306,0.028837,0.03830343,0.007993821,0.015071485,,,,0.064526,0.448602,0.001278,0.016820186,0.010241584,2.760923681,,,
483,0.039933,0.510643,0.032505,0.045802392,0.008661016,0.016988543,,,,0.071561,0.437719,0.001169,0.018654021,0.009993125,2.525445839,,,
484,0.049075,0.513294,0.043675,0.056288093,0.00870598,0.022826477,,,,0.074236,0.440212,0.001211,0.019351321,0.01005004,2.61618042,,,
485,0.058216,0.507992,0.054845,0.066772646,0.008616052,0.02866441,,,,0.076911,0.442704,0.001253,0.020048621,0.010106932,2.706915002,,,
486,0.07082,0.55325,0.07168,0.081229194,0.009383673,0.037463122,,,,0.078993,0.472823,0.001178,0.020591342,0.010794549,2.544888964,,,
487,0.083425,0.598507,0.088516,0.09568689,0.010151277,0.046262356,,,,0.081076,0.502943,0.001104,0.021134324,0.011482189,2.385023273,,,
488,0.101935,0.645961,0.106219,0.116917508,0.010956145,0.055514723,,,,0.083113,0.523551,0.00114,0.021665315,0.011952669,2.462795772,,,
489,0.120445,0.693416,0.123922,0.138148127,0.011761029,0.06476709,,,,0.085151,0.54416,0.001176,0.022196567,0.012423173,2.54056827,,,
490,0.171358,0.729739,0.177767,0.19654437,0.012377103,0.092908856,,,,0.094328,0.701146,0.001095,0.024588763,0.016007163,2.365580149,,,
491,0.206725,0.738057,0.210776,0.237109647,0.012518185,0.110160812,,,,0.109287,0.783001,0.00108,0.02848817,0.017875913,2.333174941,,,
492,0.242092,0.746375,0.243784,0.277674924,0.012659266,0.127412245,,,,0.124245,0.619291,0.001065,0.032387317,0.014138414,2.300769734,,,
493,0.284322,0.772295,0.288369,0.326111932,0.013098895,0.150714328,,,,0.137493,0.577216,0.001042,0.035840713,0.013177841,2.251081749,,,
494,0.326553,0.798216,0.332954,0.374550086,0.013538542,0.17401641,,,,0.150741,0.535141,0.001019,0.039294109,0.012217269,2.201393764,,,
495,0.373475,0.689714,0.379924,0.428368729,0.011698239,0.198564999,,,,0.167076,0.555426,0.00101,0.043552202,0.012680376,2.18195064,,,
496,0.420397,0.581212,0.426894,0.482187371,0.009857937,0.223113588,,,,0.18341,0.57571,0.001001,0.047810035,0.013143459,2.162507515,,,
497,0.475317,0.605832,0.48366,0.545179568,0.010275517,0.252781997,,,,0.20814,0.547255,0.001053,0.054256478,0.012493832,2.274845568,,,
498,0.530237,0.630451,0.540426,0.608171764,0.010693079,0.282450406,,,,0.232869,0.518801,0.001104,0.060702661,0.011844227,2.385023273,,,
499,0.631476,0.802958,0.645817,0.724290974,0.013618971,0.33753238,,,,0.250027,0.632024,0.000926,0.065175288,0.014429108,2.000481478,,,
500,0.685513,0.851461,0.699666,0.786270386,0.01444163,0.365676237,,,,0.274207,0.646747,0.000976,0.071478361,0.014765234,2.108498836,,,
501,0.739549,0.899965,0.753515,0.848248652,0.015264306,0.393820094,,,,0.298387,0.661471,0.001027,0.077781434,0.015101383,2.218676542,,,
502,0.787853,0.821072,0.798442,0.903652422,0.013926202,0.417300921,,,,0.334924,0.673571,0.000987,0.087305644,0.015377626,2.132262655,,,
503,0.836158,0.742178,0.843369,0.959057339,0.012588081,0.440781748,,,,0.37146,0.685671,0.000946,0.096829593,0.015653869,2.043688421,,,
504,0.878913,0.714092,0.880545,1.008096512,0.012111714,0.460211561,,,,0.412934,0.675512,0.001022,0.107640745,0.015421939,2.207874806,,,
505,0.921669,0.686005,0.917721,1.057136831,0.011635331,0.479641374,,,,0.454408,0.665354,0.001097,0.118451897,0.015190032,2.369900843,,,
506,0.950773,0.667095,0.947091,1.090518566,0.011314598,0.494991429,,,,0.497304,0.591148,0.000954,0.129633726,0.013495909,2.060971198,,,
507,0.979877,0.648184,0.97646,1.123900301,0.010993849,0.51034096,,,,0.540201,0.516943,0.000811,0.140815815,0.011801809,1.752041553,,,
508,0.989939,0.68865,0.98823,1.135441224,0.011680193,0.51649248,,,,0.580924,0.473025,0.000827,0.151431202,0.010799161,1.786607108,,,
509,1,0.729115,1,1.146981,0.01236652,0.522644,,,,0.621647,0.429107,0.000843,0.162046588,0.009796513,1.821172663,,,
510,0.98305,0.813376,0.987636,1.127539672,0.01379567,0.51618203,,,,0.688598,0.534802,0.000942,0.179498906,0.01220953,2.035047032,,,
511,0.969087,0.82288,0.97404,1.111524376,0.013956868,0.509076162,,,,0.731628,0.562395,0.000869,0.190715666,0.012839478,1.877341689,,,
512,0.955124,0.832385,0.960443,1.095509081,0.014118082,0.501969771,,,,0.774657,0.507209,0.000795,0.201932164,0.011579581,1.717475999,,,
513,0.931651,0.813961,0.936898,1.068585996,0.013805593,0.489664118,,,,0.812991,0.576918,0.000845,0.211924803,0.013171038,1.825493357,,,
514,0.908177,0.795537,0.913352,1.041661764,0.013493103,0.477357943,,,,0.851325,0.646628,0.000894,0.221917442,0.014762517,1.931350368,,,
515,0.87722,0.844352,0.881416,1.006154673,0.014321054,0.460666784,,,,0.880889,0.705751,0.000936,0.229623978,0.016112295,2.022084949,,,
516,0.846262,0.893168,0.849479,0.970646435,0.015149022,0.443975102,,,,0.910452,0.587505,0.000852,0.237330254,0.013412739,1.840615787,,,
517,0.772116,0.634958,0.775579,0.885602382,0.010769523,0.405351711,,,,0.942428,0.505892,0.000951,0.245665534,0.011549514,2.054490157,,,
518,0.741156,0.681593,0.749359,0.85009185,0.011560499,0.391647985,,,,0.961529,0.496054,0.000952,0.250644649,0.011324913,2.056650504,,,
519,0.710196,0.728228,0.72314,0.814581318,0.012351475,0.377944782,,,,0.980631,0.486216,0.000953,0.255624025,0.011100311,2.058810851,,,
520,0.682739,0.693107,0.699146,0.783088661,0.011755788,0.365404462,,,,0.988078,0.511613,0.000883,0.257565256,0.011680125,1.907586549,,,
521,0.655283,0.657986,0.675152,0.751597151,0.011160101,0.352864142,,,,0.995526,0.537011,0.000812,0.259506749,0.012259961,1.7542019,,,
522,0.629566,0.754667,0.647198,0.72210024,0.012799907,0.338254152,,,,1,0.553802,0.00083,0.260673,0.0126433,1.793088149,,,
523,0.603849,0.851347,0.619245,0.69260333,0.014439696,0.323644684,,,,0.991051,0.570594,0.000848,0.258340237,0.013026661,1.831974398,,,
524,0.581275,0.929027,0.597037,0.666711381,0.015757227,0.312037806,,,,0.982537,0.628074,0.000881,0.256120867,0.014338929,1.903265855,,,
525,0.5587,0.773668,0.57483,0.640818285,0.013122183,0.300431451,,,,0.974023,0.685554,0.000915,0.253901497,0.015651198,1.976717659,,,
526,0.516591,0.787864,0.525762,0.592520062,0.013362961,0.274786355,,,,0.940211,0.681707,0.001079,0.245087622,0.015563371,2.331014594,,,
527,0.503098,0.772306,0.512248,0.577043847,0.013099082,0.267723344,,,,0.926011,0.601126,0.001144,0.241386065,0.013723707,2.47143716,,,
528,0.489605,0.756749,0.498735,0.561567633,0.01283522,0.260660855,,,,0.911812,0.520545,0.001015,0.237684769,0.011884042,2.192752376,,,
529,0.475059,0.720183,0.484129,0.544883647,0.012215024,0.253027117,,,,0.889734,0.493331,0.000997,0.231929631,0.011262747,2.153866126,,,
530,0.460513,0.683618,0.469522,0.528199661,0.011594845,0.245392856,,,,0.867656,0.466118,0.00098,0.226174492,0.010641474,2.117140225,,,
531,0.451019,0.728905,0.460876,0.517310224,0.012362958,0.240874076,,,,0.847868,0.534661,0.000929,0.221016295,0.012206311,2.006962519,,,
532,0.441524,0.774193,0.452229,0.506419639,0.013131087,0.236354773,,,,0.82808,0.603204,0.000877,0.215858098,0.013771147,1.894624466,,,
533,0.430844,0.799052,0.442164,0.494169882,0.013552721,0.231094362,,,,0.802542,0.636536,0.000903,0.209201031,0.014532117,1.950793493,,,
534,0.420165,0.823911,0.432099,0.481921272,0.013974354,0.22583395,,,,0.777005,0.569871,0.000929,0.202544224,0.013010155,2.006962519,,,
535,0.406744,0.863818,0.413708,0.46652764,0.014651217,0.216222004,,,,0.728803,0.698146,0.000894,0.189979264,0.015938673,1.931350368,,,
536,0.399016,0.827446,0.405887,0.457663771,0.014034312,0.212134405,,,,0.705786,0.628756,0.000821,0.183979354,0.014354499,1.773645025,,,
537,0.391289,0.791073,0.398065,0.448801049,0.013417389,0.208046284,,,,0.682768,0.559366,0.000748,0.177979183,0.012770326,1.615939682,,,
538,0.387761,0.805739,0.394324,0.4447545,0.013666139,0.206091073,,,,0.670454,0.613104,0.000822,0.174769256,0.013997164,1.775805372,,,
539,0.384233,0.820405,0.390583,0.440707951,0.013914889,0.204135861,,,,0.658139,0.666841,0.000897,0.171559068,0.01522398,1.93783141,,,
540,0.379143,0.712026,0.383128,0.434869817,0.012076673,0.20023955,,,,0.639795,0.633592,0.00092,0.166777282,0.014464905,1.987519395,,,
541,0.374054,0.603646,0.375673,0.429032831,0.01023844,0.196343239,,,,0.621451,0.600343,0.000943,0.161995497,0.013705831,2.037207379,,,
542,0.359147,0.598493,0.366473,0.411934785,0.01015104,0.191534915,,,,0.576454,0.473776,0.000693,0.150265994,0.010816306,1.497120587,,,
543,0.353184,0.699823,0.359611,0.405095338,0.011869698,0.187948531,,,,0.56302,0.530802,0.000703,0.146764112,0.01211821,1.518724059,,,
544,0.347221,0.801152,0.352748,0.39825589,0.013588339,0.184361626,,,,0.549585,0.587828,0.000712,0.143261971,0.013420113,1.538167184,,,
545,0.339649,0.812389,0.346241,0.38957095,0.01377893,0.180960781,,,,0.536651,0.613327,0.00065,0.139890426,0.014002255,1.404225659,,,
546,0.332076,0.789916,0.339733,0.380884863,0.013397765,0.177559414,,,,0.523717,0.638826,0.000589,0.136518882,0.014584398,1.272444482,,,
547,0.32575,0.86998,0.329759,0.373629061,0.014755731,0.172346563,,,,0.515035,0.668552,0.000519,0.134255719,0.015263042,1.12122018,,,
548,0.319425,0.950044,0.319785,0.366374406,0.016113696,0.167133712,,,,0.506353,0.698279,0.00045,0.131992556,0.01594171,0.972156226,,,
549,0.311029,0.855061,0.311176,0.356744353,0.01450269,0.162634269,,,,0.50012,0.726492,0.00051,0.130367781,0.016585812,1.101777056,,,
550,0.302633,0.760079,0.302567,0.347114301,0.0128917,0.158134827,,,,0.493885,0.670066,0.00057,0.128742485,0.015297607,1.231397886,,,
551,0.281723,0.858915,0.2807,0.323130928,0.014568057,0.146706171,,,,0.469436,0.517977,0.000502,0.12236929,0.011825415,1.084494278,,,
552,0.275259,0.765545,0.277343,0.315716843,0.012984409,0.144951655,,,,0.461014,0.527583,0.000458,0.120173902,0.01204472,0.989439003,,,
553,0.268795,0.672175,0.273987,0.308302758,0.01140076,0.143197662,,,,0.452591,0.537189,0.000413,0.117978254,0.012264025,0.89222338,,,
554,0.256731,0.622772,0.264583,0.294465579,0.010562836,0.138282717,,,,0.437809,0.523407,0.000461,0.114124985,0.011949382,0.995920044,,,
555,0.244666,0.573369,0.255179,0.280627253,0.009724912,0.133367773,,,,0.423026,0.509626,0.000509,0.110271456,0.011634762,1.099616709,,,
556,0.236868,0.717275,0.246363,0.271683096,0.012165701,0.128760144,,,,0.416633,0.578507,0.000422,0.108604974,0.013207315,0.911666505,,,
557,0.229069,0.861181,0.237547,0.262737791,0.014606491,0.124152514,,,,0.410239,0.647387,0.000335,0.106938231,0.014779845,0.723716301,,,
558,0.209052,0.841265,0.220068,0.239778672,0.014268696,0.11501722,,,,0.387163,0.655462,0.000268,0.100922941,0.014964197,0.578973041,,,
559,0.20241,0.81575,0.209282,0.232160424,0.013835936,0.109379982,,,,0.380217,0.662865,0.000295,0.099112306,0.015133208,0.637302415,,,
560,0.195768,0.790236,0.198495,0.224542176,0.013403193,0.103742221,,,,0.373271,0.64806,0.000322,0.097301671,0.01479521,0.695631788,,,
561,0.188457,0.756328,0.190176,0.216156598,0.012828079,0.099394345,,,,0.365923,0.607706,0.000343,0.095386246,0.013873928,0.740999079,,,
562,0.181146,0.72242,0.181856,0.20777102,0.012252966,0.095045947,,,,0.358575,0.567353,0.000365,0.093470821,0.012952669,0.788526716,,,
563,0.174424,0.707537,0.178156,0.200061014,0.012000535,0.093112164,,,,0.353168,0.560164,0.00023,0.092061362,0.012788544,0.496879849,,,
564,0.167701,0.692655,0.174455,0.192349861,0.011748121,0.091177859,,,,0.34776,0.552974,0.000095,0.090651642,0.012624396,0.205232981,,,
565,0.157874,0.61156,0.162133,0.181078478,0.010372669,0.08473784,,,,0.322375,0.585235,0.000081,0.084034458,0.013360915,0.174988121,,,
566,0.150708,0.67913,0.158305,0.172859213,0.011518724,0.082737158,,,,0.312676,0.592633,0.000047,0.081506191,0.013529811,0.101536317,,,
567,0.143541,0.746701,0.154477,0.1646388,0.012664796,0.080736477,,,,0.302976,0.577838,0.000014,0.078977663,0.013192042,0.03024486,,,
568,0.138929,0.862368,0.147132,0.159348923,0.014626624,0.076897657,,,,0.292976,0.586508,0.000041,0.076370933,0.013389978,0.088574234,,,
569,0.134316,0.978034,0.139786,0.1540579,0.016588435,0.073058314,,,,0.282976,0.595178,0.000068,0.073764203,0.013587914,0.146903607,,,
570,0.129571,0.914725,0.135261,0.148615475,0.015514651,0.07069335,,,,0.274914,0.633131,0.000116,0.071662657,0.014454381,0.250600271,,,
571,0.124826,0.851416,0.130736,0.14317305,0.014440867,0.068328386,,,,0.266853,0.671085,0.000163,0.069561372,0.015320871,0.352136588,,,
572,0.118644,0.685053,0.12025,0.136082414,0.011619184,0.062847941,,,,0.262035,0.732545,0.000177,0.06830545,0.016724002,0.382381449,,,
573,0.115896,0.741699,0.11867,0.13293051,0.012579957,0.062022163,,,,0.262227,0.624305,0.000102,0.068355499,0.014252883,0.220355411,,,
574,0.113147,0.798345,0.117089,0.129777459,0.01354073,0.061195863,,,,0.26242,0.516065,0.000027,0.068405809,0.011781764,0.058329374,,,
575,0.110002,0.659484,0.111933,0.126170204,0.011185508,0.058501111,,,,0.247399,0.478492,0.000109,0.06449024,0.010923972,0.235477841,,,
576,0.106856,0.520624,0.106777,0.122561802,0.008830304,0.055806358,,,,0.232378,0.440919,0.000191,0.06057467,0.010066181,0.412626309,,,
577,0.103295,0.579243,0.107343,0.118477402,0.009824541,0.056102175,,,,0.233552,0.51954,0.000136,0.0608807,0.011861098,0.293807215,,,
578,0.099734,0.637862,0.10791,0.114393003,0.010818777,0.056398514,,,,0.234727,0.59816,0.000082,0.061186991,0.013655993,0.177148468,,,
579,0.090371,0.855187,0.097133,0.10365382,0.014504827,0.05076598,,,,0.198821,0.511354,0.000014,0.051827267,0.011674212,0.03024486,,,
580,0.088903,1,0.094333,0.101970052,0.016961,0.049302576,,,,0.191851,0.546708,0.000075,0.050010376,0.012481344,0.162026038,,,
581,0.087434,0.710374,0.091533,0.100285137,0.012048653,0.047839173,,,,0.184882,0.582062,0.000137,0.048193746,0.013288475,0.295967562,,,
582,0.085471,0.68645,0.087231,0.098033613,0.011642878,0.045590759,,,,0.184129,0.650408,0.000163,0.047997459,0.014848815,0.352136588,,,
583,0.083507,0.662525,0.082929,0.095780942,0.011237087,0.043342344,,,,0.183377,0.718753,0.00011,0.047801433,0.016409131,0.237638188,,,
584,0.08163,0.622085,0.082304,0.093628059,0.010551184,0.043015692,,,,0.180795,0.559715,0.000076,0.047128375,0.012778293,0.164186385,,,
585,0.079754,0.581644,0.081679,0.091476323,0.009865264,0.042689039,,,,0.178214,0.400677,0.000042,0.046455578,0.009147456,0.090734581,,,
586,0.077165,0.612679,0.083301,0.088506789,0.010391649,0.043536768,,,,0.180075,0.353141,0.000138,0.04694069,0.008062209,0.298127909,,,
587,0.075817,0.61445,0.079576,0.086960658,0.010421686,0.041589919,,,,0.173683,0.421251,0.000083,0.045274469,0.00961716,0.179308815,,,
588,0.074469,0.616221,0.075852,0.085414528,0.010451724,0.039643593,,,,0.16729,0.489362,0.000028,0.043607986,0.011172134,0.060489721,,,
589,0.071117,0.649151,0.076489,0.081569848,0.01101025,0.039976517,,,,0.161309,0.565338,0.000098,0.042048901,0.012906667,0.211714022,,,
590,0.067766,0.682081,0.077125,0.077726314,0.011568776,0.040308919,,,,0.155329,0.641315,0.000167,0.040490076,0.014641221,0.360777977,,,
591,0.065888,0.735513,0.073681,0.075572284,0.012475036,0.038508933,,,,0.144956,0.696874,0.000056,0.037786115,0.015909633,0.120979441,,,
592,0.064475,0.737433,0.066398,0.0739516,0.012507601,0.034702516,,,,0.143242,0.62705,0.000035,0.037339322,0.014315552,0.075612151,,,
593,0.063063,0.739354,0.059114,0.072332063,0.012540183,0.030895577,,,,0.141529,0.557226,0.000014,0.036892789,0.01272147,0.03024486,,,
594,0.061783,0.638857,0.058558,0.070863927,0.010835654,0.030604987,,,,0.140121,0.570574,0.000162,0.036525761,0.013026204,0.349976241,,,
595,0.060502,0.538359,0.058003,0.069394644,0.009131107,0.03031492,,,,0.138712,0.583923,0.00031,0.036158473,0.013330962,0.669707622,,,
596,0.059441,0.501095,0.057355,0.068177698,0.008499072,0.029976247,,,,0.140242,0.528359,0.000233,0.036557303,0.012062436,0.50336089,,,
597,0.058379,0.46383,0.056708,0.066959604,0.007867021,0.029638096,,,,0.141772,0.472795,0.000155,0.036956133,0.01079391,0.334853811,,,
598,0.057687,0.410644,0.055409,0.066165893,0.006964933,0.028959181,,,,0.14203,0.473658,0.000028,0.037023386,0.010813612,0.060489721,,,
599,0.054492,0.48718,0.055848,0.062501289,0.00826306,0.029188622,,,,0.129912,0.494542,0.000085,0.033864551,0.011290394,0.183629509,,,
600,0.051297,0.563715,0.056288,0.058836684,0.00956117,0.029418585,,,,0.117793,0.515426,0.000142,0.030705455,0.011767176,0.306769298,,,
601,0.050168,0.637569,0.053362,0.057541743,0.010813808,0.027889329,,,,0.113731,0.59515,0.0001,0.029646601,0.013587275,0.216034717,,,
602,0.049039,0.711423,0.050436,0.056246801,0.012066446,0.026360073,,,,0.109669,0.674874,0.000057,0.028587747,0.015407373,0.123139789,,,
603,0.046796,0.667967,0.045485,0.053674123,0.011329388,0.023772462,,,,0.114709,0.658932,0,0.029901539,0.015043418,0,,,
604,0.046061,0.692329,0.046358,0.052831092,0.011742592,0.024228731,,,,0.11116,0.591585,0,0.028976411,0.013505886,0,,,
605,0.045326,0.716692,0.047231,0.051988061,0.012155813,0.024684999,,,,0.107611,0.524239,0,0.028051282,0.011968376,0,,,
606,0.045644,0.452365,0.042461,0.052352801,0.007672563,0.022191987,,,,0.110661,0.516855,0,0.028846335,0.0117998,0,,,
607,0.045961,0.188038,0.03769,0.052716394,0.003189313,0.019698452,,,,0.113711,0.50947,0,0.029641388,0.0116312,0,,,
608,0.044628,0.366772,0.041605,0.051187468,0.00622082,0.021744604,,,,0.113717,0.465634,0,0.029642952,0.010630424,0,,,
609,0.043296,0.545506,0.045521,0.049659689,0.009252327,0.023791278,,,,0.113724,0.421798,0,0.029644776,0.009629648,0,,,
610,0.040113,0.725605,0.042747,0.046008849,0.012306986,0.022341463,,,,0.106771,0.414655,0.000051,0.027832317,0.009466574,0.110177706,,,
611,0.038977,0.833905,0.040678,0.044705878,0.014143863,0.021260113,,,,0.099392,0.469978,0.000051,0.025908811,0.010729598,0.110177706,,,
612,0.037841,0.617305,0.038608,0.043402908,0.01047011,0.02017824,,,,0.092014,0.525301,0.000103,0.023985565,0.011992622,0.222515758,,,
613,0.036051,0.625106,0.037642,0.041349812,0.010602423,0.019673365,,,,0.096379,0.54683,0.000051,0.025123403,0.012484129,0.110177706,,,
614,0.03426,0.632907,0.036677,0.039295569,0.010734736,0.019169014,,,,0.100744,0.503771,0,0.026261241,0.011501092,0,,,
615,0.034158,0.736009,0.031969,0.039178577,0.012483449,0.016708406,,,,0.089883,0.572017,0,0.023430071,0.013059148,0,,,
616,0.034988,0.561334,0.030562,0.040130571,0.009520786,0.015973046,,,,0.095257,0.573257,0,0.024830928,0.013087457,0,,,
617,0.035819,0.386658,0.029155,0.041083712,0.006558106,0.015237686,,,,0.100632,0.574497,0.000037,0.026232045,0.013115767,0.079932845,,,
618,0.033571,0.342179,0.032785,0.038505299,0.005803698,0.017134884,,,,0.101434,0.525422,0.000037,0.026441105,0.011995384,0.079932845,,,
619,0.031323,0.297701,0.036414,0.035926886,0.005049307,0.019031559,,,,0.099829,0.476348,0.000075,0.026022725,0.010875025,0.162026038,,,
620,0.031718,0.447339,0.033501,0.036379943,0.007587317,0.017509097,,,,0.088065,0.451625,0,0.022956168,0.010310599,0,,,
621,0.030631,0.513572,0.032865,0.035133175,0.008710695,0.017176695,,,,0.082354,0.457458,0,0.021467464,0.010443766,0,,,
622,0.029544,0.381105,0.03223,0.033886407,0.006463922,0.016844816,,,,0.076644,0.463292,0,0.019979021,0.010576956,0,,,
623,0.028516,0.376441,0.029123,0.03270731,0.006384816,0.015220961,,,,0.07763,0.568256,0,0.020236045,0.012973284,0,,,
624,0.027488,0.371777,0.026015,0.031528214,0.00630571,0.013596584,,,,0.078616,0.673221,0,0.020493069,0.015369635,0,,,
625,0.028612,0.536189,0.021939,0.03281742,0.009094302,0.011466287,,,,0.089493,0.658118,0.000015,0.023328409,0.015024834,0.032405208,,,
626,0.027736,0.420439,0.021048,0.031812665,0.007131066,0.011000611,,,,0.095113,0.633765,0.000015,0.024793391,0.014468855,0.032405208,,,
627,0.02686,0.304689,0.020156,0.03080791,0.00516783,0.010534412,,,,0.083873,0.609412,0.000031,0.021863427,0.013912876,0.066970762,,,
628,0.027747,0.181685,0.021504,0.031825282,0.003081559,0.011238937,,,,0.086227,0.553194,0.000015,0.022477051,0.012629419,0.032405208,,,
629,0.028635,0.058681,0.022852,0.032843801,0.000995288,0.011943461,,,,0.08858,0.496976,0.000023,0.023090414,0.011345962,0.049687985,,,
630,0.026228,0.234925,0.029733,0.030083018,0.003984563,0.015539774,,,,0.077191,0.436315,0.000046,0.02012161,0.009961071,0.09937597,,,
631,0.025603,0.430493,0.030008,0.029366155,0.007301592,0.015683501,,,,0.077409,0.437544,0.000023,0.020178436,0.00998913,0.049687985,,,
632,0.024978,0.626061,0.030283,0.028649291,0.010618621,0.015827228,,,,0.077626,0.438774,0,0.020235002,0.01001721,0,,,
633,0.023558,0.63382,0.028058,0.027020578,0.010750221,0.014664345,,,,0.06587,0.440049,0,0.017170531,0.010046319,0,,,
634,0.022137,0.64158,0.025833,0.025390718,0.010881838,0.013501462,,,,0.054113,0.441324,0,0.014105798,0.010075427,0,,,
635,0.023614,0.512451,0.014309,0.027084809,0.008691681,0.007478513,,,,0.076766,0.575476,0,0.020010824,0.013138117,0,,,
636,0.024136,0.454171,0.01825,0.027683533,0.007703194,0.009538253,,,,0.086403,0.625126,0,0.022522929,0.014271627,0,,,
637,0.024658,0.39589,0.022191,0.028282257,0.00671469,0.011597993,,,,0.067128,0.525827,0,0.017498457,0.01200463,0,,,
638,0.025267,0.324659,0.017949,0.028980769,0.005506541,0.009380937,,,,0.074395,0.527391,0,0.019392768,0.012040337,0,,,
639,0.025876,0.253429,0.013707,0.02967928,0.004298409,0.007163881,,,,0.081662,0.528955,0,0.021287079,0.012076043,0,,,
640,0.02137,0.230739,0.018917,0.024510984,0.003913564,0.009886857,,,,0.082177,0.306745,0,0.021421325,0.007002988,0,,,
641,0.021166,0.28035,0.021554,0.024277,0.004755016,0.011265069,,,,0.076075,0.39396,0,0.019830698,0.008994107,0,,,
642,0.020962,0.32996,0.024192,0.024043016,0.005596452,0.012643804,,,,0.069973,0.481176,0,0.018240072,0.010985248,0,,,
643,0.01959,0.386733,0.025595,0.022469358,0.006559378,0.013377073,,,,0.065045,0.510579,0,0.016955475,0.011656519,0,,,
644,0.018217,0.443506,0.022788,0.020894553,0.007522305,0.011910011,,,,0.060118,0.539982,0,0.015671139,0.012327789,0,,,
645,0.017963,0.545403,0.014481,0.02060322,0.00925058,0.007568408,,,,0.058069,0.663021,0,0.01513702,0.015136769,0,,,
646,0.01887,0.47269,0.014542,0.021643531,0.008017295,0.007600289,,,,0.059939,0.768898,0,0.015624479,0.017553941,0,,,
647,0.019777,0.399978,0.014602,0.022683843,0.006784027,0.007631648,,,,0.061808,0.557144,0,0.016111677,0.012719598,0,,,
648,0.020603,0.363801,0.014457,0.02363125,0.006170429,0.007555864,,,,0.063699,0.526644,0.000008,0.016604609,0.012023283,0.017282777,,,
649,0.021428,0.327623,0.014312,0.024577509,0.005556814,0.007480081,,,,0.06559,0.496143,0.000008,0.017097542,0.011326945,0.017282777,,,
650,0.021607,0.101648,0.01773,0.024782818,0.001724052,0.009266478,,,,0.081845,0.38701,0.000017,0.021334782,0.008835438,0.036725902,,,
651,0.020565,0.185415,0.01968,0.023587664,0.003144824,0.010285634,,,,0.0953,0.398241,0.000008,0.024842137,0.009091842,0.017282777,,,
652,0.019523,0.269182,0.021631,0.02239251,0.004565596,0.011305312,,,,0.068389,0.409473,0,0.017827166,0.009348269,0,,,
653,0.01789,0.279677,0.018161,0.02051949,0.004743602,0.009491738,,,,0.061546,0.493003,0,0.01604338,0.011255258,0,,,
654,0.016257,0.258686,0.014691,0.01864647,0.004387573,0.007678163,,,,0.054702,0.576534,0,0.014259334,0.013162271,0,,,
655,0.010604,0.54761,0.016078,0.012162587,0.009288013,0.00840307,,,,0.048355,0.53274,0,0.012604843,0.012162454,0,,,
656,0.013761,0.60867,0.01188,0.015783606,0.010323652,0.006209011,,,,0.053696,0.569213,0,0.013997097,0.012995133,0,,,
657,0.016917,0.48655,0.007681,0.019403478,0.008252375,0.004014429,,,,0.059037,0.605686,0,0.015389352,0.013827811,0,,,
658,0.01745,0.384523,0.013769,0.020014818,0.006521895,0.007196285,,,,0.068155,0.502371,0,0.017766168,0.01146913,0,,,
659,0.017731,0.299342,0.015355,0.02033712,0.00507714,0.008025199,,,,0.068914,0.460005,0,0.017964019,0.010501914,0,,,
660,0.018011,0.214162,0.01694,0.020658275,0.003632402,0.008853589,,,,0.069672,0.417639,0.000018,0.018161609,0.009534698,0.038886249,,,
661,0.017595,0.235406,0.018991,0.020181131,0.003992721,0.009925532,,,,0.069912,0.374398,0.000018,0.018224171,0.008547506,0.038886249,,,
662,0.017178,0.256651,0.021041,0.01970284,0.004353058,0.010996952,,,,0.069433,0.331156,0.000035,0.018099308,0.007560291,0.075612151,,,
663,0.016924,0.585871,0.020781,0.019411506,0.009936958,0.010861065,,,,0.062055,0.485853,0,0.016176063,0.011092024,0,,,
664,0.014049,0.602094,0.019531,0.016113936,0.010212116,0.01020776,,,,0.057848,0.493016,0,0.015079412,0.011255555,0,,,
665,0.011175,0.618318,0.018282,0.012817513,0.010487292,0.009554978,,,,0.053641,0.500179,0,0.01398276,0.011419087,0,,,
666,0.010505,0.544716,0.012064,0.012049035,0.009238928,0.006305177,,,,0.051163,0.502289,0,0.013336813,0.011467258,0,,,
667,0.009835,0.471115,0.005846,0.011280558,0.007990582,0.003055377,,,,0.048684,0.504399,0,0.012690604,0.011515429,0,,,
668,0.017121,0.390596,0.013581,0.019637462,0.006624899,0.007098028,,,,0.054459,0.40417,0,0.014195991,0.009227201,0,,,
669,0.018445,0.399358,0.014098,0.021156065,0.006773511,0.007368235,,,,0.067977,0.447776,0,0.017719769,0.010222726,0,,,
670,0.01977,0.408121,0.014614,0.022675814,0.00692214,0.007637919,,,,0.081494,0.491382,0,0.021243285,0.011218251,0,,,
671,0.014666,0.283382,0.013794,0.016821623,0.004806442,0.007209351,,,,0.068221,0.336839,0,0.017783373,0.007690034,0,,,
672,0.013671,0.291695,0.012924,0.015680377,0.004947439,0.006754651,,,,0.058278,0.412522,0,0.015191501,0.009417877,0,,,
673,0.012675,0.300009,0.012054,0.014537984,0.005088453,0.006299951,,,,0.048335,0.488206,0,0.012599629,0.011145743,0,,,
674,0.011439,0.387166,0.015356,0.013120316,0.006566723,0.008025721,,,,0.047548,0.549293,0,0.01239448,0.012540359,0,,,
675,0.010202,0.474322,0.018658,0.0117015,0.008044975,0.009751492,,,,0.04676,0.42712,0,0.012189069,0.00975115,0,,,
676,0.010705,0.564688,0.005169,0.012278432,0.009577673,0.002701547,,,,0.044278,0.451777,0,0.011542079,0.010314069,0,,,
677,0.013549,0.493835,0.005188,0.015540446,0.008375935,0.002711477,,,,0.049186,0.502197,0,0.012821462,0.011465158,0,,,
678,0.016392,0.422982,0.005207,0.018801313,0.007174198,0.002721407,,,,0.054094,0.552617,0,0.014100845,0.012616246,0,,,
679,0.01717,0.411545,0.002862,0.019693664,0.006980215,0.001495807,,,,0.078419,0.491363,0,0.020441716,0.011217817,0,,,
680,0.01726,0.353858,0.008159,0.019796892,0.006001786,0.004264252,,,,0.086501,0.355694,0,0.022548475,0.008120494,0,,,
681,0.01708,0.296171,0.013456,0.019590435,0.005023356,0.007032698,,,,0.070337,0.220026,0,0.018334957,0.005023194,0,,,
682,0.01659,0.334514,0.016408,0.019028415,0.005673692,0.008575543,,,,0.060884,0.381468,0,0.015870815,0.008708914,0,,,
683,0.016099,0.372857,0.01936,0.018465247,0.006324028,0.010118388,,,,0.051431,0.542911,0,0.013406673,0.012394658,0,,,
684,0.014241,0.451442,0.02344,0.016334156,0.007656908,0.012250775,,,,0.061683,0.581319,0,0.016079093,0.013271513,0,,,
685,0.012954,0.536753,0.020583,0.014857992,0.009103868,0.010757581,,,,0.071046,0.59499,0,0.018519774,0.013583622,0,,,
686,0.011667,0.622064,0.017725,0.013381827,0.010550828,0.009263865,,,,0.052321,0.608661,0,0.013638672,0.013895731,0,,,
687,0.012233,0.551493,0.000994,0.014031019,0.009353873,0.000519508,,,,0.049837,0.591794,0,0.01299116,0.013510657,0,,,
688,0.015255,0.515238,0.006263,0.017497195,0.008738952,0.003273319,,,,0.059602,0.565644,0,0.015536632,0.012913653,0,,,
689,0.018278,0.478983,0.011532,0.020964519,0.008124031,0.006027131,,,,0.069367,0.539494,0,0.018082104,0.012316648,0,,,
690,0.018808,0.356255,0.013092,0.021572419,0.006042441,0.006842455,,,,0.069631,0.472149,0,0.018150922,0.010779162,0,,,
691,0.019338,0.233528,0.014652,0.022180319,0.003960868,0.00765778,,,,0.069895,0.404804,0,0.018219739,0.009241675,0,,,
692,0.01325,0.157203,0.014284,0.015197498,0.00266632,0.007465447,,,,0.065462,0.362038,0,0.017064176,0.008265328,0,,,
693,0.013415,0.26861,0.016905,0.01538675,0.004555894,0.008835297,,,,0.061063,0.428044,0,0.015917475,0.009772245,0,,,
694,0.01358,0.380017,0.019526,0.015576002,0.006445468,0.010205147,,,,0.056663,0.49405,0,0.014770514,0.011279162,0,,,
695,0.010645,0.479933,0.013498,0.012209613,0.008140144,0.007054649,,,,0.056208,0.736854,0,0.014651908,0.016822377,0,,,
696,0.012114,0.409172,0.011456,0.013894528,0.006939966,0.00598741,,,,0.059559,0.767382,0,0.015525423,0.017519331,0,,,
697,0.013583,0.33841,0.009413,0.015579443,0.005739772,0.004919648,,,,0.06291,0.706327,0,0.016398938,0.016125445,0,,,
698,0.015213,0.380751,0.007611,0.017449022,0.006457918,0.003977843,,,,0.064807,0.631212,0,0.016893435,0.01441057,0,,,
699,0.016844,0.423093,0.005809,0.019319748,0.00717608,0.003036039,,,,0.066704,0.556097,0,0.017387932,0.012695695,0,,,
700,0.020163,0.262851,0.005864,0.023126578,0.004458216,0.003064784,,,,0.084443,0.48818,0,0.02201201,0.011145149,0,,,
701,0.017927,0.189454,0.00616,0.020561928,0.003213329,0.003219487,,,,0.090138,0.515062,0,0.023496543,0.011758865,0,,,
702,0.015691,0.116057,0.006456,0.017997279,0.001968443,0.00337419,,,,0.078748,0.541944,0,0.020527477,0.012372582,0,,,
703,0.013358,0.552042,0.023343,0.015321372,0.009363184,0.012200079,,,,0.058776,0.559244,0,0.015321316,0.012767541,0,,,
704,0.013176,0.639345,0.023654,0.015112622,0.010843931,0.012362621,,,,0.055776,0.675076,0,0.014539297,0.015411985,0,,,
705,0.012994,0.726647,0.023033,0.014903871,0.01232466,0.012038059,,,,0.052777,0.790908,0,0.013757539,0.01805643,0,,,
706,0.014371,0.460338,0.004426,0.016483264,0.007807793,0.002313222,,,,0.062122,0.772632,0,0.016193528,0.017639189,0,,,
707,0.014572,0.488545,0.00417,0.016713807,0.008286212,0.002179425,,,,0.056838,0.783008,0,0.014816132,0.017876073,0,,,
708,0.014773,0.516752,0.003913,0.01694435,0.008764631,0.002045106,,,,0.051554,0.793383,0,0.013438736,0.018112934,0,,,
709,0.01619,0.434459,0.00564,0.018569622,0.007368859,0.002947712,,,,0.068974,0.568057,0,0.01797966,0.012968741,0,,,
710,0.015358,0.480353,0.009082,0.017615334,0.008147267,0.004746653,,,,0.075005,0.583756,0,0.019551778,0.013327149,0,,,
711,0.014526,0.526248,0.012524,0.016661046,0.008925692,0.006545593,,,,0.081035,0.599455,0,0.021123637,0.013685558,0,,,
712,0.014975,0.333843,0.009417,0.01717604,0.005662311,0.004921739,,,,0.075028,0.523011,0,0.019557774,0.011940341,0,,,
713,0.015425,0.141439,0.006311,0.017692182,0.002398947,0.003298406,,,,0.06902,0.446567,0,0.01799165,0.010195125,0,,,
714,0.013752,0.411341,0.020313,0.015773283,0.006976755,0.010616468,,,,0.058182,0.571311,0,0.015166476,0.01304303,0,,,
715,0.013668,0.484873,0.030104,0.015676936,0.008223931,0.015733675,,,,0.058978,0.720567,0,0.015373972,0.016450545,0,,,
716,0.013585,0.558405,0.010522,0.015581737,0.009471107,0.00549926,,,,0.059773,0.869823,0,0.015581207,0.019858059,0,,,
717,0.014008,0.674044,0.008868,0.01606691,0.01143246,0.004634807,,,,0.064007,0.690219,0,0.016684897,0.0157577,0,,,
718,0.015154,0.346208,0.007713,0.01738135,0.005872034,0.004031153,,,,0.078621,0.665839,0,0.020494372,0.015201104,0,,,
719,0.0163,0.018371,0.006558,0.01869579,0.000311591,0.003427499,,,,0.093236,0.64146,0,0.024304108,0.014644532,0,,,
720,0.023939,0.316337,0.014493,0.027457578,0.005365392,0.007574679,,,,0.081119,0.594429,0,0.021145533,0.013570814,0,,,
721,0.030376,0.482376,0.014562,0.034840695,0.008181579,0.007610742,,,,0.080899,0.499592,0,0.021088185,0.011405685,0,,,
722,0.017502,0.150298,0.014632,0.020074461,0.002549204,0.007647327,,,,0.080678,0.404754,0,0.021030576,0.009240534,0,,,
723,0.018871,0.380938,0.014216,0.021644678,0.006461089,0.007429907,,,,0.073118,0.721647,0,0.019059888,0.016475201,0,,,
724,0.013842,0.546122,0.013971,0.015876511,0.009262775,0.007301859,,,,0.064703,0.760716,0,0.016866325,0.017367146,0,,,
725,0.008813,0.711306,0.013725,0.010108344,0.012064461,0.007173289,,,,0.056288,0.799784,0,0.014672762,0.018259069,0,,,
726,0.01153,0.38986,0.001898,0.013224691,0.006612415,0.000991978,,,,0.053269,0.724067,0,0.01388579,0.01653045,0,,,
727,0.012888,0.440685,0.003501,0.014782291,0.007474458,0.001829777,,,,0.063731,0.741782,0,0.016612951,0.016934883,0,,,
728,0.014245,0.491511,0.005104,0.016338744,0.008336518,0.002667575,,,,0.074194,0.759498,0,0.019340373,0.017339339,0,,,
729,0.020625,0.398514,0.018752,0.023656483,0.006759196,0.00980062,,,,0.094642,0.532901,0,0.024670614,0.01216613,0,,,
730,0.023114,0.299788,0.021121,0.026511319,0.005084704,0.011038764,,,,0.105559,0.527847,0,0.027516381,0.012050747,0,,,
731,0.018136,0.201062,0.023489,0.020801647,0.003410213,0.012276385,,,,0.083726,0.522792,0,0.021825108,0.011935341,0,,,
732,0.018385,0.242809,0.024552,0.021087246,0.004118283,0.012831955,,,,0.081537,0.608689,0,0.021254494,0.01389637,0,,,
733,0.018634,0.284555,0.022426,0.021372844,0.004826337,0.011720814,,,,0.079348,0.694587,0,0.020683881,0.015857421,0,,,
734,0.015518,0.452683,0.013355,0.017798851,0.007677956,0.006979911,,,,0.080329,0.642024,0,0.020939601,0.014657408,0,,,
735,0.012367,0.47562,0.010385,0.014184714,0.008066991,0.005427658,,,,0.066521,0.621944,0,0.017340229,0.014198982,0,,,
736,0.009215,0.498557,0.007415,0.01056943,0.008456025,0.003875405,,,,0.052713,0.601864,0,0.013740856,0.013740555,0,,,
737,0.017095,0.357333,0.000682,0.01960764,0.006060725,0.000356443,,,,0.080691,0.92131,0,0.021033965,0.021033507,0,,,
738,0.019385,0.189288,0.003788,0.022234227,0.003210514,0.001979775,,,,0.083884,0.650034,0,0.021866294,0.014840276,0,,,
739,0.021675,0.021243,0.006894,0.024860813,0.000360303,0.003603108,,,,0.087078,0.378757,0,0.022698883,0.008647022,0,,,
740,0.020968,0.193365,0.016733,0.024049898,0.003279664,0.008745402,,,,0.083875,0.462874,0,0.021863948,0.010567413,0,,,
741,0.019648,0.205399,0.017187,0.022535883,0.003483772,0.008982682,,,,0.085794,0.473735,0,0.022364179,0.01081537,0,,,
742,0.018327,0.217434,0.01764,0.021020721,0.003687898,0.00921944,,,,0.087713,0.484595,0,0.022864411,0.011063304,0,,,
743,0.016249,0.109885,0.013551,0.018637294,0.001863759,0.007082349,,,,0.078646,0.702048,0,0.020500889,0.016027756,0,,,
744,0.015854,0.24402,0.010746,0.018184237,0.004138823,0.005616332,,,,0.071164,0.830259,0,0.018550533,0.018954813,0,,,
745,0.01546,0.378154,0.007941,0.017732326,0.00641387,0.004150316,,,,0.063683,0.95847,0,0.016600439,0.02188187,0,,,
746,0.017653,0.518069,0.008772,0.020247656,0.008786968,0.004584633,,,,0.063019,0.769746,0,0.016427352,0.017573301,0,,,
747,0.018773,0.441453,0.006606,0.021532274,0.007487484,0.003452586,,,,0.070084,0.69826,0,0.018269007,0.015941276,0,,,
748,0.019894,0.364837,0.00444,0.02281804,0.006188,0.002320539,,,,0.077149,0.626773,0,0.020110661,0.014309228,0,,,
749,0.023237,0.231089,0.014998,0.026652397,0.003919501,0.007838615,,,,0.112768,0.412022,0,0.029395573,0.009406462,0,,,
750,0.023726,0.326088,0.01547,0.027213271,0.005530779,0.008085303,,,,0.138776,0.466698,0,0.036175156,0.010654715,0,,,
751,0.024215,0.421087,0.015942,0.027774145,0.007142057,0.008331991,,,,0.08676,0.521375,0,0.022615989,0.011902991,0,,,
752,0.020324,0.497636,0.019994,0.023311242,0.008440404,0.010449744,,,,0.104845,0.827409,0,0.027330261,0.018889747,0,,,
753,0.015671,0.585337,0.015457,0.017974339,0.009927901,0.008078508,,,,0.087612,0.913705,0,0.022838083,0.020859885,0,,,
754,0.011019,0.673038,0.010921,0.012638584,0.011415398,0.005707795,,,,0.070379,1,0,0.018345905,0.02283,0,,,
755,0.019086,0.41401,0.007113,0.021891279,0.007022024,0.003717567,,,,0.080813,0.832243,0,0.021065767,0.019000108,0,,,
756,0.019941,0.268689,0.003556,0.022871948,0.004557234,0.001858522,,,,0.097397,0.846874,0,0.025388768,0.019334133,0,,,
757,0.020797,0.123367,0.004864,0.023853764,0.002092428,0.00254214,,,,0.113982,0.861505,0,0.02971203,0.019668159,0,,,
758,0.024382,0.249827,0.009729,0.027965691,0.004237316,0.005084803,,,,0.128414,0.556789,0,0.033474063,0.012711493,0,,,
759,0.021715,0.297592,0.017159,0.024906692,0.005047458,0.008968048,,,,0.102005,0.569234,0,0.026589949,0.012995612,0,,,
760,0.019048,0.202061,0.02459,0.021847694,0.003427157,0.012851816,,,,0.075596,0.58168,0,0.019705836,0.013279754,0,,,
